# SFF main_header 6
# beamline_name = "APS 10ID"; 
# %date = "Mon Jun 03 2013 19:44:32"; 
# edge_energy = 30491; 
# sff_header1 = " "; 
# sff_header2 = " "; 
# %devices = smy smx Io It corr_roi1_0 corr_roi2_0 corr_roi3_0 corr_roi4_0;
 89000      16000          197182     197241 320.8501   514.00067  746.78651  586.02057 
 89000      16600          197182     192094 1284.0168  1506.8995  1629.824   1414.3563 
 89000      17200          197181     104456 1318.1945  1571.0878  1895.4351  1607.8734 
 89000      17800          197181      97315 1292.278   1477.7847  1672.8957  1519.4696 
 89000      18400          197182     126206 1382.8706  1470.1553  1762.2907  1467.8095 
 89000      19000          197182      40513 1897.823   1917.585   2364.3606  2137.8001 
 89000      19600          197182      23986 2097.4306  2457.3243  2392.1314  2531.8726 
 89000      20200          197182      16348 2416.6462  2643.6604  2861.4538  2812.0335 
 89000      20800          197182      15280 16098.512  13804.751  17558.786  16814.222 
 89000      21400          197182      33787 14664.955  13032.86   16849.642  15810.156 
 89000      22000          197182      44021 12329.46   11303.869  13936.316  13382.703 
 89000      22600          197181      51513 10131.171  9837.0373  11629.921  11061.674 
 89000      23200          197182      61569 6686.0952  6710.263   7412.8725  7412.7801 
 89000      23800          197182      63248 10456.233  9989.0422  11342.27   11278.796 
 89000      24400          197182      71213 5886.6122  5729.5244  6676.3311  6644.8808 
 89000      25000          197182      71525 5657.7987  5241.1957  6180.9483  5626.6239 
 89000      25600          197182      70884 5253.1379  5506.9084  6378.5149  5964.2337 
 89000      26200          197182      60171 11414.549  10751.983  13388.276  12181.861 
 89000      26800          197182      66486 10955.729  10169.606  12278.157  11946.898 
 89000      27400          197182      67717 8542.3938  8129.6751  9852.6347  8827.4024 
 89000      28000          197182      59403 16227.571  14442.601  17850.513  16508.272 
 89000      28600          197181      58453 10764.889  10394.578  12485.965  11762.82  
 89000      29200          197182      55432 11903.506  11628.438  13852.888  13033.217 
 89000      29800          197182      44349 16927.419  16790.784  19795.654  18060.409 
 89000      30400          197182      35666 18403.471  17750.159  21191.384  19636.168 
 89000      31000          197182      21549 22859.671  21139.967  24547.726  24501.385 
 89000      31600          197182      12749 5961.6313  6923.9006  7361.6454  6549.4542 
 89000      32200          197182      16861 5820.1068  6735.0724  7003.46    6607.8249 
 89000      32800          197182      24941 5783.8596  6626.2223  7181.1661  6639.4335 
 89000      33400          197182      39972 5498.6585  6496.2614  6396.4414  6249.609  
 89000      34000          197182      82202 5168.4526  5631.8717  5992.4341  5379.9637 
 89000      34600          197182     140503 4321.5809  5323.6608  5703.6409  5123.4693 
 89000      35200          197182     197240 1973.6249  2522.9786  2698.2102  2332.4777 
 89000      35800          197182     197240 419.91405  698.56358  646.2649   618.76227 
 90000      16000          197182     197240 458.87824  535.25629  660.60987  520.43318 
 90000      16600          197182     197240 1261.9166  1456.1721  1629.3899  1457.4652 
 90000      17200          197182     111918 1596.4822  1543.0608  1960.8895  1865.4282 
 90000      17800          197182      93299 1091.2618  1350.1578  1555.7889  1423.8283 
 90000      18400          197182     130704 1170.1196  1430.5864  1646.246   1575.6062 
 90000      19000          197182      42025 1861.05    1996.3428  2367.6878  2104.6298 
 90000      19600          197182      24246 1886.3415  2247.0479  2475.0876  2450.3888 
 90000      20200          197182      16383 2189.8425  2748.7298  3034.9487  2734.9156 
 90000      20800          197182      13661 16710.425  14999.271  17449.964  16848.959 
 90000      21400          197182      32921 13620.282  12153.959  15182.484  14296.821 
 90000      22000          197181      45616 10567.835  8754.4341  11079.091  10780.208 
 90000      22600          197182      46507 19669.579  17596.011  20128.267  20762.543 
 90000      23200          197181      60131 6819.4386  6211.7578  7312.4687  6603.929  
 90000      23800          197182      60726 10788.829  9638.6656  11694.06   11442.608 
 90000      24400          197182      68759 7950.3905  7350.5305  8987.6138  8024.9045 
 90000      25000          197181      72033 6344.5598  5827.9166  7408.3995  6702.0565 
 90000      25600          197182      57525 11865.576  10426.489  12872.465  12401.208 
 90000      26200          197181      70319 6013.9736  6222.6102  7383.2734  7247.5711 
 90000      26800          197181      68404 9607.1393  8530.3113  10234.352  9741.236  
 90000      27400          197182      65991 10081.512  9280.2331  11423.303  11237.404 
 90000      28000          197182      63173 12040.436  11301.754  13347.301  12663.851 
 90000      28600          197182      59890 12499.528  11562.351  14338.927  13292.182 
 90000      29200          197182      51862 14230.429  13514.402  15729.476  15837.193 
 90000      29800          197182      44623 17738.859  17176.603  19687.651  18688.345 
 90000      30400          197182      33472 22584.244  20403.813  24558.746  22700.592 
 90000      31000          197182      19620 32359.588  28735.737  33939.543  32582.339 
 90000      31600          197182      12233 6294.0641  6846.3579  7584.2284  6970.9828 
 90000      32200          197181      17055 6137.4843  6533.5521  7706.5519  6352.9701 
 90000      32800          197182      24514 5980.7602  6396.6323  7334.1347  6320.7088 
 90000      33400          197182      40633 5461.1116  6381.9269  7125.5781  6324.4422 
 90000      34000          197182      80505 4752.7642  5566.2687  6002.81    5576.2094 
 90000      34600          197182     132858 4544.6457  4983.2991  5713.199   5192.9017 
 90000      35200          197181     197241 2124.1708  2562.1885  2557.4593  2425.2969 
 90000      35800          197181     197240 485.75911  545.54927  708.36652  631.75182 
 91000      16000          197182     197240 418.70132  598.18591  717.90832  507.47222 
 91000      16600          197182     197241 1263.2118  1355.9644  1584.348   1518.1231 
 91000      17200          197182     113078 1484.7793  1623.1892  1905.3443  1695.4613 
 91000      17800          197182      90777 1287.8374  1514.6107  1718.7014  1488.3981 
 91000      18400          197181     135354 1225.3745  1196.3656  1574.7359  1557.7024 
 91000      19000          197182      42568 1773.7521  1858.6099  2065.7499  1932.4666 
 91000      19600          197182      25410 1981.8412  2006.7352  2585.86    2529.696  
 91000      20200          197182      16874 2214.0333  2654.437   2780.5328  2628.3009 
 91000      20800          197181      11637 20402.446  18095.203  20598.702  21896.863 
 91000      21400          197182      25580 26768.933  23530.651  29362.654  28419.384 
 91000      22000          197182      36958 24171.49   20408.534  25417.608  25490.093 
 91000      22600          197181      50079 11494.678  10867.115  13065.938  13679.776 
 91000      23200          197182      55113 11751.847  10332.891  12474.044  12018.609 
 91000      23800          197182      61441 8334.4118  7700.6115  9232.1748  8895.0086 
 91000      24400          197182      59987 14470.99   12892.673  16264.038  15279.248 
 91000      25000          197182      64836 10630.6    9123.3386  11387.076  10992.394 
 91000      25600          197182      56816 13232.108  11831.496  14690.646  13767.655 
 91000      26200          197182      66713 6669.5812  6172.977   7524.5496  7147.6972 
 91000      26800          197182      68081 7620.4452  7544.8921  9356.5257  8784.1519 
 91000      27400          197182      62610 14490.407  13476.461  16264.346  15768.354 
 91000      28000          197181      60806 12036.438  11417.052  13133.737  12873.291 
 91000      28600          197182      50024 23869.824  20531.087  24619.767  23780.863 
 91000      29200          197182      33064 46594.736  40596.817  48539.667  47289.057 
 91000      29800          197182      43533 20002.617  19691.389  22594.342  21949.548 
 91000      30400          197181      33371 26014.506  22898.248  27320.221  26976.331 
 91000      31000          197181      15194 44996.907  39760.02   47457.658  44886.384 
 91000      31600          197182      12173 6387.3337  6938.5827  7788.7423  7395.2691 
 91000      32200          197182      16726 6104.7239  6975.6141  7211.3616  6799.7405 
 91000      32800          197182      24256 6075.8972  6504.2053  7484.2016  6539.3595 
 91000      33400          197182      39045 5693.1555  6397.727   7018.8568  6643.0436 
 91000      34000          197182      76567 4890.8821  5340.9457  5967.6223  5167.4355 
 91000      34600          197182     136365 4547.1809  5346.6275  6171.212   5203.226  
 91000      35200          197182     197241 2453.2096  2840.6055  2976.7176  2638.9591 
 91000      35800          197182     197241 380.00037  629.23401  708.01636  562.48533 
 92000      16000          197182     197240 386.61485  436.16851  852.25503  522.34995 
 92000      16600          197182     197241 1234.7612  1382.4231  1614.449   1390.0105 
 92000      17200          197181     109166 1385.4821  1427.4114  1742.757   1626.6806 
 92000      17800          197182      89467 1229.1661  1211.1008  1713.1494  1474.9604 
 92000      18400          197182     140251 1189.0528  1253.1001  1498.4635  1477.6205 
 92000      19000          197182      42352 1730.8642  1663.8864  2017.6331  1969.7618 
 92000      19600          197182      25175 1790.6993  1999.345   2139.5995  2246.2575 
 92000      20200          197181      16915 2444.606   2168.6825  2607.4061  2757.835  
 92000      20800          197182      12779 9535.7216  6963.9274  9228.3661  9532.6115 
 92000      21400          197182      29875 9852.3117  7296.4986  10592.222  10352.514 
 92000      22000          197182      38262 16307.888  12306.706  17739.711  17950.957 
 92000      22600          197182      45391 15820.883  12986.598  17143.704  16615.214 
 92000      23200          197181      55058 10207.673  8231.0041  10586.565  10262.924 
 92000      23800          197182      59942 12361.872  10533.023  13200.573  12306.06  
 92000      24400          197182      60489 10667.768  9975.2916  11435.865  11296.2   
 92000      25000          197182      59943 10683.492  9247.328   11653.503  10968.627 
 92000      25600          197182      32863 19741.659  17006.128  21849.175  20118.469 
 92000      26200          197182      61943 8534.7704  8144.7784  10111.573  8950.486  
 92000      26800          197181      59797 13179.076  11878.315  14044.268  13892.641 
 92000      27400          197182      58376 13927.483  13079.664  15446.127  15125.704 
 92000      28000          197182      55306 17899.505  16862.605  20450.544  19599.71  
 92000      28600          197182      45811 25133.705  23377.217  27790.188  26014.052 
 92000      29200          197182      40077 35988.454  32969.324  38657.427  37509.396 
 92000      29800          197182      30220 48490.628  43036.201  50001.804  48587.784 
 92000      30400          197182      24902 44317.743  40178.108  47980.035  46095.768 
 92000      31000          197181      13332 50792.027  44651.988  53861.301  52381.254 
 92000      31600          197181      12220 7597.1443  7775.4884  8873.3253  8192.787  
 92000      32200          197182      16269 5996.859   6905.802   6981.1295  6740.4702 
 92000      32800          197182      24255 5680.8245  6962.0516  7249.5342  6453.7554 
 92000      33400          197181      38149 5554.6054  6148.9513  7076.1581  6460.9238 
 92000      34000          197182      76975 4996.1287  5497.9259  5925.6416  5567.4919 
 92000      34600          197181     130590 4508.8069  5608.5799  5795.2526  5334.3993 
 92000      35200          197182     197240 2392.8369  2999.8158  3324.3828  2961.7002 
 92000      35800          197182     197240 467.21124  493.25044  711.06601  505.49083 
 93000      16000          197182     197240 363.37827  453.15065  637.16053  572.83599 
 93000      16600          197182     197240 1110.0178  1182.8275  1520.4009  1338.7524 
 93000      17200          197182     115610 1178.3884  1373.8204  1664.2217  1407.3472 
 93000      17800          197182      88745 1138.7817  1393.7146  1601.0686  1454.387  
 93000      18400          197182     153412 1074.6971  1120.1964  1275.7628  1251.806  
 93000      19000          197182      46990 1566.7893  1380.8608  1836.904   1731.6843 
 93000      19600          197182      27241 1653.763   1357.0373  2042.5847  1849.4115 
 93000      20200          197182      17827 1777.5025  1700.8648  2043.3531  2274.7246 
 93000      20800          197181      12156 6515.1119  2668.3896  3947.3559  5238.1712 
 93000      21400          197182      18333 27413.872  6223.6896  12697.155  20346.807 
 93000      22000          197182      27115 23771.942  6496.5141  11816.908  17409.076 
 93000      22600          197182      32108 20081.761  6425.6827  11291.259  15419.39  
 93000      23200          197182      37799 22595.351  7942.4257  14327.644  18074.939 
 93000      23800          197182      37362 20821.359  8836.2353  14404.161  18121.145 
 93000      24400          197182      38007 14342.995  8597.3646  12736.192  13979.519 
 93000      25000          197182      37295 15057.821  11194.201  15589.602  15505.217 
 93000      25600          197182      41315 9495.1104  7647.8531  9284.0807  9769.3409 
 93000      26200          197182      32899 12422.126  11835.753  14385.717  13352.236 
 93000      26800          197182      15212 26034.131  24642.291  28790.255  28123.772 
 93000      27400          197182      27823 33039.311  29709.476  35608.198  35078.389 
 93000      28000          197182       9699 44598.014  40090.714  50076.56   46087.138 
 93000      28600          197181       8512 58200.822  52545.291  62946.946  59275.677 
 93000      29200          197182       7485 75549.106  61106.605  77632.813  76653.668 
 93000      29800          197182       1107 86043.416  78051.941  88817.568  87212.151 
 93000      30400          197182        796 89763.86   81513.519  95263.352  89485.641 
 93000      31000          197181        208 88202.549  78775.407  94531.01   90429.338 
 93000      31600          197182      12191 8415.0953  8560.9071  10081.094  9052.8347 
 93000      32200          197182      16648 6542.5676  7038.6153  8063.7895  7894.0685 
 93000      32800          197182      23797 6483.8853  7258.7673  7137.7582  6715.1596 
 93000      33400          197182      37463 6209.607   6735.1794  6962.5263  6310.4813 
 93000      34000          197182      74867 4721.4066  5774.7885  5899.4827  5735.7831 
 93000      34600          197182     134552 4546.1904  5383.7302  5989.2675  5417.4056 
 93000      35200          197182     197241 2487.7517  2921.0313  3238.48    3035.3366 
 93000      35800          197182     197240 426.84547  546.13996  664.94829  530.84175 
 94000      16000          197181     197240 360.68375  510.55156  637.36804  596.56684 
 94000      16600          197182     197240 1111.5217  1202.2502  1525.6013  1259.8461 
 94000      17200          197182     119665 1329.8662  1306.2165  1587.4461  1601.8583 
 94000      17800          197182      86804 1016.1551  1349.7121  1573.2744  1507.4189 
 94000      18400          197182     167986 967.8982   1174.6654  1385.3037  1405.4022 
 94000      19000          197182      53809 1253.8447  1410.9389  1607.0475  1621.1657 
 94000      19600          197182      28304 1262.7006  1456.691   1607.3147  1356.1653 
 94000      20200          197182      18725 1573.4108  1546.7173  1829.3911  1735.6923 
 94000      20800          197182      13444 1758.9896  1488.0342  1970.2518  1964.6492 
 94000      21400          197182         32 7040.1654  3441.2991  4562.6338  5568.2607 
 94000      22000          197182         44 6654.1623  3985.5873  4894.7937  5494.5154 
 94000      22600          197182        110 5825.4078  3983.5267  5279.0347  5689.8074 
 94000      23200          197182        115 5087.743   3958.1058  5154.8286  5124.2028 
 94000      23800          197182        122 4509.2276  4223.0428  4892.0958  4838.873  
 94000      24400          197182         89 4447.5353  4369.9854  5309.5256  4982.4337 
 94000      25000          197182         47 4564.3403  4790.8373  5927.0771  5612.3406 
 94000      25600          197182         27 5765.2141  5887.7813  6853.3719  6491.9965 
 94000      26200          197182         20 13401.883  13832.902  15865      14797.472 
 94000      26800          197182         21 27180.508  24975.084  29906.872  28400.79  
 94000      27400          197182         20 34878.3    33086.184  39111.796  37589.866 
 94000      28000          197182         12 49906.293  44673.106  52990.911  50542.704 
 94000      28600          197181         10 61822.796  55125.253  66936.132  64098.736 
 94000      29200          197181          9 73327.04   64066.822  80972.845  78098.209 
 94000      29800          197182         11 85550.586  78063.498  90511.072  88612.466 
 94000      30400          197182         12 85603.374  79244.51   92913.236  90289.297 
 94000      31000          197182        675 74278.506  63376.811  76700.782  72706.43  
 94000      31600          197182      12741 8023.4773  7981.9292  9717.9687  9025.9084 
 94000      32200          197182      16397 6678.2789  7273.5672  8376.6268  7558.1741 
 94000      32800          197182      25071 6167.161   6789.5831  7597.4374  7005.4903 
 94000      33400          197182      42209 5896.2258  6449.8687  7063.0991  6449.8913 
 94000      34000          197182      79254 5039.8877  5494.6414  6041.9836  5581.0037 
 94000      34600          197182     123713 4638.255   5078.8278  5619.8139  5047.6657 
 94000      35200          197182     197241 2633.4136  3078.1626  3406.0725  3287.8238 
 94000      35800          197182     197240 396.05452  509.2401   656.72558  592.97692 
 95000      16000          197181     197241 376.23219  535.2292   658.59657  544.55749 
 95000      16600          197182     197240 958.27876  1011.8242  1348.3267  1464.8083 
 95000      17200          197182     116514 1136.2948  1413.4146  1785.8441  1437.4813 
 95000      17800          197182      83833 957.72454  1285.3594  1371.6894  1376.8675 
 95000      18400          197182     161134 947.83026  1288.1101  1442.5972  1403.4574 
 95000      19000          197182      81083 1136.389   1295.727   1437.1054  1580.8024 
 95000      19600          197182      36224 1342.9855  1323.8384  1628.8128  1722.4643 
 95000      20200          197182      22240 1281.9379  1471.799   1634.7858  1508.4412 
 95000      20800          197182      15685 1348.9682  1407.9826  1662.792   1655.9711 
 95000      21400          197182       8757 1525.7516  1536.6615  1692.0353  1658.3584 
 95000      22000          197182         15 1505.7806  1873.5797  2083.5203  1854.8573 
 95000      22600          197182          8 1533.1908  1746.2858  2027.1064  1926.7192 
 95000      23200          197182          5 1730.8445  1809.2024  2224.8433  2116.9549 
 95000      23800          197182          5 2141.6075  2320.6067  2873.1048  2677.5864 
 95000      24400          197182          5 2529.8521  2817.7815  3110.2451  3075.192  
 95000      25000          197182          4 3104.6745  3889.0593  4092.3103  3987.8278 
 95000      25600          197182          5 4710.3419  5221.914   5381.1539  5259.8755 
 95000      26200          197182          4 12324.548  13529.503  15803.797  14680.365 
 95000      26800          197182          3 22581.147  23872.41   28192.828  24407.886 
 95000      27400          197182          4 34165.847  33285.523  39576.628  35997.492 
 95000      28000          197182          4 50382.378  46857.959  55931.465  52101.986 
 95000      28600          197181          6 56135.659  52945.732  63788.422  57673.809 
 95000      29200          197182          8 79802.757  71102.204  82612.929  80226.489 
 95000      29800          197182          9 83968.161  78957.237  87937.905  85902.463 
 95000      30400          197182         23 79582.273  76459.114  86938.316  84697.737 
 95000      31000          197182      10777 10496.041  10116.302  12184.386  11354.058 
 95000      31600          197182      14455 7303.7489  7735.3576  8884.0268  7863.129  
 95000      32200          197182      19984 6740.9805  7332.9837  7826.8721  7326.4337 
 95000      32800          197182      29550 5830.361   6373.4194  6814.6765  6968.5399 
 95000      33400          197182      66632 4969.5913  5756.3638  6206.2774  5881.4032 
 95000      34000          197182      79180 4650.9359  5245.6291  5744.1921  5124.822  
 95000      34600          197182     125891 4672.9967  5123.9719  5960.1638  5369.0863 
 95000      35200          197182     197241 2994.2358  3565.0428  3769.7459  3507.2436 
 95000      35800          197182     197241 418.3902   574.75103  632.64378  508.3279  
 96000      16000          197182     197240 391.64976  495.02323  728.18976  615.52377 
 96000      16600          197181     197241 1112.7821  1171.2697  1341.8682  1223.8362 
 96000      17200          197182     120335 1202.1798  1416.4424  1770.1054  1472.2218 
 96000      17800          197182      81994 1102.9981  1279.6935  1637.6402  1489.2488 
 96000      18400          197182     160611 1020.5049  1280.1656  1450.7248  1482.5675 
 96000      19000          197182     189619 958.77891  1339.8627  1418.6614  1360.3638 
 96000      19600          197182      56490 1086.4938  1330.0926  1544.346   1415.3566 
 96000      20200          197182      31139 1211.8823  1502.0751  1761.4436  1461.884  
 96000      20800          197182      21050 1294.4636  1579.1963  1630.8171  1607.1032 
 96000      21400          197182      15067 1077.5044  1566.9524  1907.8804  1577.9531 
 96000      22000          197182       7275 1366.1719  1555.6395  1686.5701  1775.8316 
 96000      22600          197182         20 1408.3756  1878.258   2066.7384  1973.1087 
 96000      23200          197182          9 1616.2149  2090.01    2307.1996  1985.313  
 96000      23800          197182          5 1904.116   2096.4118  2495.8309  2451.0258 
 96000      24400          197181          3 2508.8692  3006.1842  3131.3455  2910.3351 
 96000      25000          197182          3 3114.1222  3619.0006  4247.9392  3701.2281 
 96000      25600          197181          4 4327.7383  5556.5801  5962.6271  5294.7205 
 96000      26200          197181          4 12248.662  16929.382  17374.576  14884.494 
 96000      26800          197182          4 22492.931  25822.195  28812.528  26625.092 
 96000      27400          197182          6 33284.866  34878.939  40818.611  35071.627 
 96000      28000          197182          6 49540.427  49048.164  55205.801  51803.167 
 96000      28600          197181          8 66444.252  60724.145  74737.978  68097.499 
 96000      29200          197181         12 74954.556  66673.466  83981.512  78455.586 
 96000      29800          197182         29 72425.738  63955.283  77004.186  71580.471 
 96000      30400          197181       9501 12612.282  11989.098  13761.847  13319.203 
 96000      31000          197182      13431 7190.76    7471.231   8305.1569  8094.2907 
 96000      31600          197181      18736 6680.3057  7566.5023  7672.9334  7532.3165 
 96000      32200          197182      27252 6464.3556  6246.0339  7018.3285  7006.0358 
 96000      32800          197182      49344 5728.6619  6714.9667  7054.6434  6368.7035 
 96000      33400          197182     152466 3492.8217  4233.8838  4659.9505  4238.6772 
 96000      34000          197182      81810 4922.8804  5265.786   5699.1504  5182.7476 
 96000      34600          197182     122054 4066.2077  4959.6437  5024.4409  4768.4873 
 96000      35200          197182     197241 2748.8464  3601.8255  3917.0959  3287.7841 
 96000      35800          197182     197241 418.06923  450.43659  652.87721  487.32484 
 97000      16000          197182     197240 390.42411  534.28913  613.55872  641.37997 
 97000      16600          197182     197241 1158.8149  1325.4055  1499.386   1355.4037 
 97000      17200          197182     120357 1251.8327  1388.5433  1787.2058  1531.3694 
 97000      17800          197182      80498 1307.2204  1295.2634  1489.0541  1453.8237 
 97000      18400          197182     156598 1110.287   1325.5699  1473.4258  1349.8876 
 97000      19000          197181     188855 989.29244  1205.5261  1322.9715  1219.6243 
 97000      19600          197182     174983 1113.0963  1396.6758  1712.0428  1399.3563 
 97000      20200          197182      54589 1548.4157  1834.916   1706.4601  1762.9656 
 97000      20800          197182      32865 1328.7148  1878.4253  1950.3079  1786.1397 
 97000      21400          197182      22396 1464.9437  1913.8882  1948.7601  1944.2892 
 97000      22000          197182      16224 1474.7558  1688.8175  1821.894   1453.6629 
 97000      22600          197182      13087 1362.1849  1652.3584  1882.1586  1870.0363 
 97000      23200          197182        560 1903.1988  2284.8437  2602.2795  2259.0216 
 97000      23800          197182         15 1886.022   2450.0001  2558.4105  2554.0537 
 97000      24400          197182          9 2621.2764  2938.6324  3564.0768  2827.131  
 97000      25000          197182          7 3062.7398  3886.3148  4092.0654  3921.5608 
 97000      25600          197181          6 3978.5651  5497.7225  5779.5737  4754.9304 
 97000      26200          197182          6 6447.6122  12508.156  12979.481  9134.2262 
 97000      26800          197181          6 11342.65   17969.043  18603.655  14585.251 
 97000      27400          197182          7 34962.925  35834.182  41943.25   37538.698 
 97000      28000          197182         12 49610.467  48642.16   57094.188  53708.742 
 97000      28600          197182         26 51906.492  49611.436  57218.144  53329.01  
 97000      29200          197181       4239 27859.691  28318.852  32460.027  30122.451 
 97000      29800          197182      11400 7213.5624  7245.6848  8057.4006  7837.4793 
 97000      30400          197182      14692 6912.6554  7498.3455  7701.179   7665.4181 
 97000      31000          197182      19616 6013.9669  7187.0073  7627.2208  6796.8219 
 97000      31600          197182      27715 5997.4949  6171.1783  7074.1481  6451.1587 
 97000      32200          197182      44150 5297.5553  6159.1586  6226.4953  6302.4993 
 97000      32800          197182     156915 3993.1931  4402.5036  4918.5706  4784.6558 
 97000      33400          197182     156497 3426.1261  4190.147   4145.2719  4305.1609 
 97000      34000          197182      81430 4246.0251  5059.4292  5719.9273  4998.236  
 97000      34600          197182     118813 4079.3602  4673.6051  5121.4676  4678.7951 
 97000      35200          197182     197240 2821.5608  3451.0814  3878.8378  3356.0753 
 97000      35800          197182     197240 425.10124  578.8148   696.07937  631.88522 
 98000      16000          197182     197241 387.69483  515.04022  535.03565  523.14114 
 98000      16600          197182     197241 955.80514  1439.7283  1457.2565  1213.6421 
 98000      17200          197182     123189 1313.3649  1800.7471  1774.2876  1601.3245 
 98000      17800          197182      80418 1278.529   1620.8491  1672.667   1590.5936 
 98000      18400          197182     158002 1150.647   1611.1566  1650.6136  1604.6233 
 98000      19000          197182     191781 1277.8659  1720.7777  1624.8345  1798.1291 
 98000      19600          197182     196440 1306.4819  1746.3902  1666.5598  1533.5768 
 98000      20200          197182     179996 1199.754   1771.4311  1793.032   1534.3482 
 98000      20800          197181      61506 1517.582   1898.3769  2118.2723  1907.2866 
 98000      21400          197182      35994 1545.9038  1861.7025  2162.0561  2015.3215 
 98000      22000          197182      26664 1494.117   1964.0209  2016.4902  2162.2649 
 98000      22600          197182      19418 1516.0399  1953.1078  2177.5809  2084.4373 
 98000      23200          197182       9761 2158.1626  2936.0445  3127.5413  2797.0057 
 98000      23800          197182       5476 2135.9863  2929.971   2999.1353  2785.6412 
 98000      24400          197181       3396 2539.3061  3096.7274  3048.5353  2610.6551 
 98000      25000          197182        405 2615.8191  2936.0375  3312.6411  2670.3325 
 98000      25600          197182         25 3786.9559  4464.3181  5493.1177  4667.6021 
 98000      26200          197182         12 9435.6431  11030.595  12535.714  11031.123 
 98000      26800          197181         13 33368.455  36283.249  40945.113  36727.098 
 98000      27400          197182         31 55920.888  54999.937  63366.526  58801.137 
 98000      28000          197182       5971 17833.626  19237.042  21569.114  19990.85  
 98000      28600          197182      12214 6737.4183  7347.2369  8287.1494  7348.3061 
 98000      29200          197182      14113 5891.8694  6519.8951  7226.7272  6411.2341 
 98000      29800          197182      18145 5853.9824  6740.9453  7717.9364  6935.1373 
 98000      30400          197182      23198 5801.7023  6189.5988  7023.5636  6664.8673 
 98000      31000          197182      32728 5781.6884  6576.1773  6728.3086  6590.1461 
 98000      31600          197182      55259 5521.5151  5726.3825  6500.5429  6271.653  
 98000      32200          197182     193950 3303.7715  3857.369   4074.8375  3917.787  
 98000      32800          197182     194723 3039.6484  3680.5827  4060.8716  3821.2153 
 98000      33400          197182     160466 3352.6877  3700.0776  4267.3991  3823.7641 
 98000      34000          197182      85714 3753.1434  4640.0524  5023.6639  4676.801  
 98000      34600          197182     116331 3779.4935  4834.8682  5170.4425  4549.2187 
 98000      35200          197182     197240 2657.2528  3519.2098  3762.7486  3474.6117 
 98000      35800          197181     197241 460.74054  603.63518  539.82391  595.21715 
 99000      16000          197182     197240 491.86506  546.74263  578.07718  615.34026 
 99000      16600          197182     197241 1029.5013  1377.1181  1481.2785  1360.4531 
 99000      17200          197182     134403 1441.2607  2219.787   2186.0355  1894.0132 
 99000      17800          197181      79047 1382.3269  1986.5163  1982.1244  1839.6411 
 99000      18400          197182     149221 1496.9355  1926.236   2179.3834  1762.0445 
 99000      19000          197182     191299 1437.9747  1933.6752  2078.9162  1963.1835 
 99000      19600          197182     197240 1571.2546  2220.7066  1962.4555  1810.2886 
 99000      20200          197182     197241 1546.8492  1854.4985  1991.2256  1905.3059 
 99000      20800          197182     197240 1330.9536  1729.19    1852.6276  1618.7691 
 99000      21400          197182     115552 1666.8598  2061.6964  2112.8909  2069.8997 
 99000      22000          197182      62858 1876.1679  2201.9797  1946.1337  2227.8349 
 99000      22600          197182      42205 1780.7941  2187.5688  2358.9898  2075.168  
 99000      23200          197182      30163 2226.178   2839.1408  2941.1574  2813.9761 
 99000      23800          197182      18952 4183.0825  6095.1444  6568.5074  5306.1068 
 99000      24400          197182      13133 5159.1948  6181.2382  6304.6242  5931.1849 
 99000      25000          197182      10307 4657.6475  6167.5665  6191.9879  5335.2718 
 99000      25600          197182       9653 5357.5533  6665.6695  6896.9139  6183.892  
 99000      26200          197182       4264 32912.306  36378.572  41587.694  37907.935 
 99000      26800          197182        828 40645.612  42380.047  49586.883  42149.881 
 99000      27400          197182       3810 32679.346  34664.694  39638.645  35359.615 
 99000      28000          197181      18748 5633.204   6452.039   7171.5261  5864.0935 
 99000      28600          197182      22249 5236.0309  5991.7577  6376.3344  5629.7474 
 99000      29200          197182      26710 5003.3537  5995.5738  6384.8227  6031.3967 
 99000      29800          197182      36976 5283.1896  5616.5352  6210.8372  5953.8663 
 99000      30400          197182      54216 4733.3341  5513.8401  6159.3958  5518.5343 
 99000      31000          197182     148093 4084.9919  4564.4003  5078.7426  4261.8712 
 99000      31600          197182     197240 2671.2414  3151.0773  3681.7499  3409.9949 
 99000      32200          197182     197240 2642.1787  3436.5092  3611.1093  3360.2364 
 99000      32800          197181     190270 3027.8791  3382.5502  3782.5674  3344.5176 
 99000      33400          197181     162701 3325.4991  3905.0005  4381.0649  3957.6376 
 99000      34000          197182      85586 4003.0192  4396.2663  4919.7396  4625.0304 
 99000      34600          197182     119071 3956.9186  4822.9941  5068.6793  4890.8023 
 99000      35200          197182     197240 2754.4673  3561.1882  4175.3233  3461.4321 
 99000      35800          197182     197240 465.73449  540.23992  718.95719  455.2624  
 100000     16000          197181     197240 400.48423  592.78     720.04324  627.9041  
 100000     16600          197182     197240 1082.2434  1541.0756  1519.974   1427.3652 
 100000     17200          197182     128790 1778.4068  2367.7452  2637.3006  2169.7988 
 100000     17800          197182      81085 1949.5676  2685.7968  2679.5054  2428.7827 
 100000     18400          197182     154514 1947.852   2264.8909  2598.6101  2220.9538 
 100000     19000          197182     195249 1790.4202  2197.9943  2329.989   2109.3237 
 100000     19600          197182     197241 1562.7762  1980.8809  2067.2909  2077.6336 
 100000     20200          197182     197240 1439.2589  1784.0651  1940.6303  1987.209  
 100000     20800          197182     197240 1529.716   1663.599   1935.9819  1767.8107 
 100000     21400          197182     197241 1346.5596  1721.3934  1815.2938  1793.2914 
 100000     22000          197182     197241 1246.4115  1606.5747  1733.1824  1573.2858 
 100000     22600          197182     197241 1249.4628  1560.7622  1862.2993  1726.2291 
 100000     23200          197182     117676 1791.8372  2260.3762  2329.5222  2087.897  
 100000     23800          197182      70470 1688.1268  2371.5004  2574.8306  2202.9523 
 100000     24400          197181      54449 2159.7953  2613.0626  2793.7683  2574.0629 
 100000     25000          197182      45377 2740.8522  3175.9736  3481.6238  3033.8801 
 100000     25600          197182      40231 3773.0941  4308.884   4683.2403  4471.9993 
 100000     26200          197182      25730 33528.474  37341.518  43241.599  38845.073 
 100000     26800          197182      36250 9090.9379  9893.2876  11294.028  10214.538 
 100000     27400          197182      36255 16347.94   17273.525  20048.92   18524.105 
 100000     28000          197181      47530 4374.2193  5376.3357  6006.7163  5067.9782 
 100000     28600          197181      63501 4734.7506  5445.6326  5250.8949  5156.7152 
 100000     29200          197182      98557 3882.3931  4818.246   4902.8508  4337.4883 
 100000     29800          197182     197241 2202.1751  2692.2198  3021.1707  2622.1295 
 100000     30400          197182     197240 2431.8917  2856.7284  3140.291   3006.9123 
 100000     31000          197182     197240 2181.205   2808.1906  3255.4235  2979.2669 
 100000     31600          197182     197241 2494.5319  2959.2122  3048.2798  3196.7009 
 100000     32200          197182     197240 2509.6091  3360.6665  3610.9685  3213.4315 
 100000     32800          197182     194114 2854.446   3302.3514  3578.2162  3564.9785 
 100000     33400          197181     160413 3168.6173  3821.8178  4404.0935  4178.3736 
 100000     34000          197182      86315 3533.2763  4266.9655  4680.3034  4378.3765 
 100000     34600          197182     114829 3667.2871  4631.1194  4951.1671  4698.8486 
 100000     35200          197182     197240 3164.6621  3727.6783  3873.5647  3559.626  
 100000     35800          197182     197240 380.12425  577.59172  781.26501  588.20447 
 101000     16000          197182     197240 392.07315  585.78986  636.90487  509.67397 
 101000     16600          197182     197240 1163.3014  1481.248   1518.55    1406.4426 
 101000     17200          197182     132652 2297.7566  3067.6375  3042.7426  2766.0285 
 101000     17800          197182      81443 2633.9934  2902.3334  3464.0877  3193.266  
 101000     18400          197182     149318 1814.3509  2531.6498  2718.9025  2478.33   
 101000     19000          197182     185922 1917.5888  2287.8843  2381.8063  2013.3433 
 101000     19600          197182     197240 1592.321   1995.4155  2322.6066  1977.9839 
 101000     20200          197182     197240 1542.9556  1854.8898  2092.5707  1936.704  
 101000     20800          197182     197240 1466.6947  1713.3293  1937.7998  1689.5802 
 101000     21400          197182     197240 1266.2117  1676.6356  2001.5973  1853.1414 
 101000     22000          197182     197240 1444.8905  1657.6345  1583.716   1787.5508 
 101000     22600          197182     197241 1305.3452  1579.7808  1668.5931  1477.3019 
 101000     23200          197182     197241 1207.7397  1429.7065  1650.1141  1512.7281 
 101000     23800          197182     197241 1129.5183  1400.696   1656.7723  1598.8257 
 101000     24400          197182     197240 1448.0912  1592.8038  1806.971   1666.5877 
 101000     25000          197181     197240 1423.016   1677.7003  1619.7824  1581.1664 
 101000     25600          197182     197240 1542.3474  1865.4754  1852.9822  2055.4695 
 101000     26200          197182     197240 1552.5302  1940.867   2337.4819  1736.204  
 101000     26800          197182     197240 1771.179   1926.5478  2325.919   2027.8231 
 101000     27400          197182     197240 1661.8762  2224.9943  2309.7745  2068.5985 
 101000     28000          197182     197241 1807.8496  2454.2839  2353.3449  2172.1968 
 101000     28600          197182     197240 1797.16    2302.3411  2613.4426  2425.2677 
 101000     29200          197182     197240 2056.491   2815.1515  2555.6831  2521.7497 
 101000     29800          197182     197240 2110.1779  2846.1553  2969.8207  2577.0266 
 101000     30400          197182     197241 2263.8591  2570.1617  2724.7596  2443.4689 
 101000     31000          197182     197240 2364.8845  2707.5933  3395.2168  2960.2615 
 101000     31600          197182     197240 2708.3651  3345.84    3408.9694  3001.4885 
 101000     32200          197182     197240 2607.4749  3174.1313  3535.8087  3154.3986 
 101000     32800          197182     197062 3052.5476  3744.9747  3592.8073  3500.0736 
 101000     33400          197182     160897 3167.0557  3773.3921  4056.7475  3598.9384 
 101000     34000          197182      88491 3469.1359  4594.6382  4807.9368  4384.8799 
 101000     34600          197182     112667 3654.2864  4685.2886  5143.077   4559.682  
 101000     35200          197182     197159 2905.9931  3393.3126  3880.1634  3797.5178 
 101000     35800          197182     197240 372.56508  599.79765  643.85102  641.89457 
 102000     16000          197182     197240 421.68754  539.81121  636.27706  541.16445 
 102000     16600          197182     197240 1272.4905  1436.4686  1777.5366  1602.7404 
 102000     17200          197182     134386 2284.4915  2758.4865  3011.4462  2594.403  
 102000     17800          197181      81702 2654.0344  3203.7087  3465.177   3147.5613 
 102000     18400          197181     153943 2134.5667  2804.858   2854.2569  2609.1385 
 102000     19000          197182     190787 2184.2252  2157.1698  2555.2518  2422.2129 
 102000     19600          197182     197240 1792.2438  2178.2182  2426.3343  2116.5428 
 102000     20200          197182     197240 1496.2712  1929.7967  2217.1076  2017.7843 
 102000     20800          197182     197240 1394.0522  2079.591   2070.6597  1712.0292 
 102000     21400          197181     197240 1342.0432  1683.3492  1820.8335  1667.9503 
 102000     22000          197182     197240 1385.6715  1680.0034  1717.2799  1572.1372 
 102000     22600          197182     197240 1181.5369  1579.8967  1770.6429  1463.544  
 102000     23200          197182     197241 1173.5169  1484.3033  1560.1134  1550.0083 
 102000     23800          197182     197240 1395.465   1550.1389  1783.4457  1440.9017 
 102000     24400          197182     197240 1216.4823  1484.4506  1517.4282  1399.2459 
 102000     25000          197182     197241 1268.8807  1722.2211  1772.0213  1745.9906 
 102000     25600          197182     197240 1521.3966  1836.5055  2009.2002  1746.2923 
 102000     26200          197182     197241 1762.4201  1867.8259  1891.4874  1677.4664 
 102000     26800          197182     197241 1561.9485  2069.7776  2210.9028  1837.9787 
 102000     27400          197182     197240 1778.2969  2198.4307  2367.1293  2101.3368 
 102000     28000          197182     197240 1929.3472  2111.7578  2453.9523  2318.4061 
 102000     28600          197181     197240 1796.9408  2469.2759  2588.4605  2342.975  
 102000     29200          197182     197240 2160.7865  2433.4577  2567.0641  2537.2647 
 102000     29800          197182     197240 2171.8571  2490.0532  2946.3401  2581.846  
 102000     30400          197182     197241 2226.8091  2858.098   2974.5535  2915.1803 
 102000     31000          197182     197240 2500.271   2495.3783  2876.1984  2767.4076 
 102000     31600          197182     197241 2535.6129  3027.072   3188.0279  2842.388  
 102000     32200          197182     197240 2578.205   3355.8164  3447.3861  2845.7218 
 102000     32800          197182     196621 2784.431   3431.5398  3520.1811  3512.5005 
 102000     33400          197182     166508 3172.6548  3851.5465  4052.4958  3591.5213 
 102000     34000          197182      92550 3621.8563  4273.2932  4712.4606  4187.1821 
 102000     34600          197182     112192 3836.7907  4605.0895  4939.6888  4526.8155 
 102000     35200          197182     197240 3035.2616  3612.7075  3970.7977  3755.6174 
 102000     35800          197182     197240 392.51114  594.21128  702.89642  587.97916 
 103000     16000          197182     197241 488.61887  473.71659  679.09495  580.66651 
 103000     16600          197181     197241 1270.2974  1386.7148  1650.8693  1330.8553 
 103000     17200          197182     136838 2355.2043  2893.1949  3028.1079  2915.6849 
 103000     17800          197182      84261 2657.7342  3123.7868  3533.1248  3162.4896 
 103000     18400          197182     149101 2431.3028  2633.8073  2732.0217  2501.4944 
 103000     19000          197182     184664 1853.3426  2215.1924  2349.9134  2246.2454 
 103000     19600          197182     197240 1798.7299  2534.4874  2376.7287  2480.4811 
 103000     20200          197182     197241 1731.0555  1907.4713  2132.9504  1997.6006 
 103000     20800          197182     197240 1682.3726  1828.1904  1968.8781  1858.2982 
 103000     21400          197182     197240 1411.0008  1625.1954  2017.2128  1732.0119 
 103000     22000          197182     197240 1560.6353  1719.6483  1871.8614  1789.4474 
 103000     22600          197182     197241 1371.2065  1424.9763  1767.5329  1708.2536 
 103000     23200          197182     197240 1245.2489  1574.1419  1667.2846  1392.3067 
 103000     23800          197182     197240 1303.8761  1571.8333  1709.3778  1594.3131 
 103000     24400          197182     197240 1345.1841  1584.6375  1983.6363  1541.8813 
 103000     25000          197182     197240 1458.321   1602.3112  1731.8091  1532.3615 
 103000     25600          197182     197241 1351.7651  1691.8453  2041.3024  1734.5525 
 103000     26200          197182     197241 1501.7934  1778.6641  2076.8062  1782.4788 
 103000     26800          197182     197240 1656.7993  1817.503   2146.2518  1808.3187 
 103000     27400          197182     197241 1689.6484  2042.7468  2272.2811  1807.9593 
 103000     28000          197182     197241 2015.4868  2111.1511  2242.2537  2398.7124 
 103000     28600          197182     197240 1882.5614  2315.8914  2555.2262  2281.7707 
 103000     29200          197181     197241 2045.7446  2245.1521  2616.7883  2337.4783 
 103000     29800          197182     197240 2079.1763  2567.019   2695.2368  2480.279  
 103000     30400          197182     197240 2258.9179  2931.3532  2805.6983  2670.3196 
 103000     31000          197181     197240 2209.1143  2648.5632  2703.6249  2699.7345 
 103000     31600          197182     197240 2341.9563  2805.3914  3007.4105  2851.9884 
 103000     32200          197182     197240 2597.8959  3152.3516  3454.079   3040.6494 
 103000     32800          197182     196794 2705.7206  3420.7796  3515.6802  3450.6341 
 103000     33400          197182     166760 3048.9536  3531.6241  4009.1821  3583.5005 
 103000     34000          197182      90986 3334.2862  4016.6981  4361.4883  3850.9512 
 103000     34600          197182     114058 4161.2914  4899.3091  5150.9279  4746.9969 
 103000     35200          197182     197207 3320.9185  3994.0608  4264.5481  3984.2674 
 103000     35800          197181     197240 376.24876  536.68389  729.91125  565.51477 
 104000     16000          197182     197241 429.81956  557.67589  728.20452  502.96861 
 104000     16600          197182     197241 1072.1907  1189.5976  1458.6089  1283.6089 
 104000     17200          197181     143891 2545.5068  2792.9044  3267.8748  2887.6979 
 104000     17800          197182      83521 2937.8829  3164.3809  3541.7653  3371.6313 
 104000     18400          197182     141314 1992.9637  2787.6492  2696.3391  2648.3229 
 104000     19000          197182     188982 1948.035   2236.0388  2836.9545  2260.0272 
 104000     19600          197182     197241 1614.6413  2145.3395  2184.4312  2108.0348 
 104000     20200          197181     197240 1475.3698  1922.5968  1969.993   1811.4678 
 104000     20800          197182     197241 1395.5359  1626.0171  1758.9535  1841.3694 
 104000     21400          197182     197240 1487.2367  1511.0006  1891.3787  1811.8559 
 104000     22000          197182     197241 1182.8499  1796.1712  1643.355   1581.7869 
 104000     22600          197182     197240 1453.8039  1576.7939  1642.1959  1686.7593 
 104000     23200          197181     197240 1291.6395  1356.2116  1670.8937  1520.7138 
 104000     23800          197182     197240 1319.788   1361.9476  1721.3783  1585.2619 
 104000     24400          197182     197241 1393.8762  1632.6917  1645.5361  1488.1557 
 104000     25000          197182     197241 1296.7739  1558.2901  1803.1284  1725.4593 
 104000     25600          197182     197241 1287.4982  1845.0093  1910.4173  1847.1513 
 104000     26200          197182     197240 1412.2099  1744.8358  2008.0558  1727.4507 
 104000     26800          197182     197240 1565.8797  2024.7412  2145.9307  1834.15   
 104000     27400          197182     197241 1623.5674  1947.0559  2158.9968  2025.2221 
 104000     28000          197182     197240 1646.7263  1897.037   2243.9085  2188.6656 
 104000     28600          197182     197240 1855.873   2233.8333  2447.3652  2177.5256 
 104000     29200          197182     197240 1813.2499  2399.2136  2604.673   2282.1452 
 104000     29800          197182     197240 1980.207   2681.5344  2756.7791  2504.6267 
 104000     30400          197182     197240 2271.8705  2694.3044  2780.0287  2756.355  
 104000     31000          197182     197241 2116.956   2439.965   2791.0361  2508.3216 
 104000     31600          197182     197241 2504.0179  2820.7046  3111.5861  2905.3518 
 104000     32200          197182     197240 2364.4154  2975.3114  2987.6827  2890.6811 
 104000     32800          197182     196995 2801.4779  3099.7257  3432.4396  3159.6734 
 104000     33400          197181     171402 3062.0715  3637.9187  3749.0966  3398.1402 
 104000     34000          197182      93191 2838.7156  3852.7736  4290.0658  3838.5189 
 104000     34600          197182     109093 3726.8676  4761.9657  4883.4663  4253.7079 
 104000     35200          197182     188156 2978.7119  3625.7125  4252.4092  3666.4092 
 104000     35800          197182     197240 383.06971  518.45014  586.24442  542.78579 
 105000     16000          197181     197240 440.22898  503.49879  722.17612  514.23827 
 105000     16600          197181     197240 968.39735  983.1517   1199.8954  1149.3069 
 105000     17200          197182     144301 2421.8964  2288.9782  2910.4159  2547.6738 
 105000     17800          197182      85910 2731.068   3019.919   3482.2488  2976.6078 
 105000     18400          197182     141195 2076.62    2367.4433  2654.2061  2372.8366 
 105000     19000          197182     180646 1800.4824  2039.499   2092.0726  2164.9614 
 105000     19600          197181     197240 1692.2104  1968.18    2127.6928  2129.1023 
 105000     20200          197182     197240 1680.3409  1786.5449  1869.3592  1724.7136 
 105000     20800          197182     197240 1407.8418  1823.9756  1879.3363  1781.2392 
 105000     21400          197182     197240 1462.915   1328.4527  1848.8748  1539.1004 
 105000     22000          197182     197241 1276.3533  1486.0661  1631.2686  1603.0533 
 105000     22600          197182     197240 1261.3782  1513.3101  1707.1078  1367.008  
 105000     23200          197182     197241 1193.3779  1304.9675  1581.7836  1388.1741 
 105000     23800          197182     197240 1262.2829  1448.8267  1685.7632  1384.6169 
 105000     24400          197182     197241 1322.6859  1697.9882  1527.3999  1610.5062 
 105000     25000          197182     197241 1290.555   1595.9315  1852.2471  1510.9204 
 105000     25600          197181     197240 1397.7991  1621.3441  1818.3117  1842.3212 
 105000     26200          197182     197240 1446.8996  1748.7087  1837.1386  1791.4049 
 105000     26800          197182     197241 1508.9627  1812.5903  2084.8186  1986.0961 
 105000     27400          197182     197241 1667.7696  2365.8273  2055.7512  2069.8294 
 105000     28000          197182     197240 1931.6616  2412.4127  2337.0251  2204.7566 
 105000     28600          197182     197241 1926.7063  2320.133   2523.8509  2247.7642 
 105000     29200          197182     197240 2103.3396  2375.6096  2573.5751  2253.9245 
 105000     29800          197182     197240 2025.9058  2525.803   2715.6077  2649.2311 
 105000     30400          197182     197241 2260.6221  2617.6121  2789.2112  2546.9462 
 105000     31000          197182     197241 2117.2466  2568.4579  2892.9962  2663.3865 
 105000     31600          197182     197240 2479.3077  3057.4262  2851.3887  2870.0319 
 105000     32200          197182     197240 2665.4274  3219.198   3352.3611  3281.4331 
 105000     32800          197182     196687 2654.3512  3281.0597  3297.3777  3233.2741 
 105000     33400          197182     164280 2882.5328  3501.8846  3652.3401  3647.7454 
 105000     34000          197182      99967 3249.4601  4072.6556  4096.7214  3725.3191 
 105000     34600          197181     106938 3883.6942  4676.2341  4689.815   4484.3109 
 105000     35200          197182     182954 3106.2022  3812.1207  4142.7172  3677.0225 
 105000     35800          197182     197240 349.90222  518.23006  651.19342  468.78282 
